% Filename:     NCEP_air_zonal_ann.dat
% No. of header lines:  5
% No. of columns:       2
% Column  1: yobs       = latitude/degN
% Column  2: tobs       = NCEP surface air temperature (zonal annual mean/degC)
  0.9000000E+02 -0.1750292E+02
  0.8750000E+02 -0.1794011E+02
  0.8500000E+02 -0.1778582E+02
  0.8250000E+02 -0.1721889E+02
  0.8000000E+02 -0.1646708E+02
  0.7750000E+02 -0.1486486E+02
  0.7500000E+02 -0.1320101E+02
  0.7250000E+02 -0.1117342E+02
  0.7000000E+02 -0.9465664E+01
  0.6750000E+02 -0.7762194E+01
  0.6500000E+02 -0.5696958E+01
  0.6250000E+02 -0.3706705E+01
  0.6000000E+02 -0.1091036E+01
  0.5750000E+02  0.8278492E+00
  0.5500000E+02  0.1924834E+01
  0.5250000E+02  0.3158501E+01
  0.5000000E+02  0.4232323E+01
  0.4750000E+02  0.6095939E+01
  0.4500000E+02  0.8199138E+01
  0.4250000E+02  0.9955922E+01
  0.4000000E+02  0.1209396E+02
  0.3750000E+02  0.1339949E+02
  0.3500000E+02  0.1453064E+02
  0.3250000E+02  0.1670197E+02
  0.3000000E+02  0.1888657E+02
  0.2750000E+02  0.2118433E+02
  0.2500000E+02  0.2292805E+02
  0.2250000E+02  0.2385718E+02
  0.2000000E+02  0.2486815E+02
  0.1750000E+02  0.2554845E+02
  0.1500000E+02  0.2600320E+02
  0.1250000E+02  0.2626882E+02
  0.1000000E+02  0.2616365E+02
  0.7500000E+01  0.2592141E+02
  0.5000000E+01  0.2576759E+02
  0.2500000E+01  0.2567469E+02
  0.0000000E+00  0.2538439E+02
 -0.2500000E+01  0.2532742E+02
 -0.5000000E+01  0.2534403E+02
 -0.7500000E+01  0.2516833E+02
 -0.1000000E+02  0.2494384E+02
 -0.1250000E+02  0.2445916E+02
 -0.1500000E+02  0.2393276E+02
 -0.1750000E+02  0.2342568E+02
 -0.2000000E+02  0.2279429E+02
 -0.2250000E+02  0.2201141E+02
 -0.2500000E+02  0.2105646E+02
 -0.2750000E+02  0.1998988E+02
 -0.3000000E+02  0.1881940E+02
 -0.3250000E+02  0.1759975E+02
 -0.3500000E+02  0.1627508E+02
 -0.3750000E+02  0.1481611E+02
 -0.4000000E+02  0.1317846E+02
 -0.4250000E+02  0.1128832E+02
 -0.4500000E+02  0.9350055E+01
 -0.4750000E+02  0.7514716E+01
 -0.5000000E+02  0.5798537E+01
 -0.5250000E+02  0.4281723E+01
 -0.5500000E+02  0.2832488E+01
 -0.5750000E+02  0.1280344E+01
 -0.6000000E+02 -0.7497063E+00
 -0.6250000E+02 -0.3656234E+01
 -0.6500000E+02 -0.7361724E+01
 -0.6750000E+02 -0.1218390E+02
 -0.7000000E+02 -0.1843810E+02
 -0.7250000E+02 -0.2515935E+02
 -0.7500000E+02 -0.3038581E+02
 -0.7750000E+02 -0.3353625E+02
 -0.8000000E+02 -0.3492831E+02
 -0.8250000E+02 -0.3502941E+02
 -0.8500000E+02 -0.3750795E+02
 -0.8750000E+02 -0.4340871E+02
